u(t),theta,theta_dot
-0.008281000015159653,-1.570793587403637,0.0008522304647544654
-0.016652811793202354,-1.5707736433466408,0.003440653590024871
-0.024978392598650312,-1.5707193776681805,0.007683098605616256
-0.03330298335271567,-1.5706144894882372,0.013484869285666437
-0.04162625411105657,-1.5704441239817988,0.0207181304614841
-0.04994787532303178,-1.5701950521178067,0.02922097700549739
-0.058267516852439666,-1.569860626798998,0.0387745666459388
-0.06658484819767778,-1.5694301073526444,0.049176449147024404
-0.07489953983797493,-1.5688921223655508,0.06023355331975409
-0.0832112626354909,-1.568238471619161,0.0717428914768033
-0.09151968745238519,-1.5674641260895577,0.08349155943252291
-0.09982448515081735,-1.5665672279474623,0.09525673650293943
-0.10812532659294728,-1.5655490905582352,0.10680568550575485
-0.11642188264093427,-1.564414198481875,0.11789575276034674
-0.12471382415693835,-1.5631702074730194,0.1282743680877681
-0.13300082200311916,-1.561827944480945,0.1376790448107476
-0.14128254753934646,-1.5604014076495671,0.1458373797536893
-0.14955867324346347,-1.5589050693248985,0.1525598253154045
-0.15782887097322215,-1.5573492239715698,0.15785367617065807
-0.16609281248338073,-1.5557486752319336,0.16159950868364137
-0.17435017071960238,-1.5541188577604799,0.16371106071704358
-0.18260061868109606,-1.5524755895097893,0.16414447380862524
-0.19084382936707284,-1.5508350717305317,0.16289829317121834
-0.19907947577674187,-1.5492138889714677,0.16001346769272615
-0.20730723098170561,-1.5476290090794476,0.15557334993612343
-0.21552676922407496,-1.546097430102766,0.1497019009579897
-0.22373776465326142,-1.5446304929516979,0.14252284527114484
-0.23193989120536584,-1.543241000479003,0.1341766972619339
-0.2401328242551605,-1.5419411687381268,0.12482954798343593
-0.24831623963859314,-1.5407406410341318,0.11466616279466127
-0.25648981319161057,-1.5396464879236977,0.10388998136055136
-0.26465322075015785,-1.5386632072151207,0.09272311765197916
-0.27280613815018306,-1.537792723968314,0.08140635994574874
-0.2809482418954953,-1.537034390494808,0.07019917082459554
-0.2890792097272218,-1.5363854051968124,0.05933840607435879
-0.2971987192352702,-1.5358420222801794,0.04900956547728454
-0.3053064484804586,-1.5353985033134743,0.039431539126401745
-0.3134020767382898,-1.5350470236410196,0.030798324690037016
-0.3214852833073635,-1.5347776790168746,0.023277684763937413
-0.3295557474862813,-1.534578485604832,0.01701114687127045
-0.3376131488252852,-1.5344353799784203,0.012114003462623958
-0.3456571682206408,-1.5343328759427983,0.00867205756383989
-0.353687486676503,-1.5342572966960002,0.0067366319903781734
-0.3617037856139114,-1.534193010628101,0.0063488904609455
-0.36970574805154227,-1.5341244578300153,0.007515456329605598
-0.3776930572023308,-1.5340365781233283,0.010205320033848959
-0.3856653962792104,-1.533914811060296,0.014349839094592927
-0.39362244855145817,-1.5337450959238457,0.01984273811618158
-0.40156389866477027,-1.5335139701897011,0.026541486765511546
-0.40948943196211784,-1.5332106767619345,0.034303783626763285
-0.41739873407310724,-1.5328249837122951,0.04296681025127955
-0.42529149204603084,-1.5323481908967875,0.05234598517378722
-0.433167393438439,-1.5317740026774542,0.06224464733158714
-0.4410261258078807,-1.5310985279223779,0.07245405606455393
-0.4488673773535824,-1.5303202800056805,0.08275339111513617
-0.45669083777540376,-1.5294405369134698,0.09292360884434588
-0.4644961956267332,-1.528462617609634,0.10277288163307029
-0.472283140581424,-1.527389481543821,0.11207964097515517
-0.48005136566666995,-1.526226090082391,0.12064202427206767
-0.4878005641370989,-1.5249795707871088,0.12828220146238448
-0.4955304292473345,-1.5236592174151442,0.13484637502179114
-0.5032406542520087,-1.5222764899190704,0.14020477996308256
-0.5109309324057537,-1.5208450144468655,0.14425168383616288
-0.5186009574407138,-1.5193805833419114,0.14690538672804537
-0.5262504268158371,-1.517900228428871,0.14811380284130066
-0.533879037394834,-1.5164152570400085,0.14788264980740423
-0.5414864852019918,-1.514940177687586,0.1462071623101144
-0.5490724700424054,-1.5134897850507976,0.14310725482364853
-0.556636692496866,-1.5120778552066878,0.1386372132678069
-0.564178853146173,-1.5107171456301525,0.13288569500797295
-0.5716986525711232,-1.5094193951939374,0.125975728855113
-0.5791957913525075,-1.5081953241686394,0.11806471506577645
-0.5866699719254589,-1.5070546342227065,0.10934442534209585
-0.5941208996099817,-1.5060038147861965,0.10001257077213782
-0.6015482771523667,-1.5050458611221271,0.09022942335866085
-0.6089518085551943,-1.504186660660467,0.08019427307653255
-0.6163312028455964,-1.5034296548266062,0.0701048950588376
-0.6236861692147211,-1.5027756446071876,0.06015559353127352
-0.6310164168537121,-1.5022227905501073,0.050537201812150705
-0.6383216549537246,-1.5017666127645142,0.04143708231239249
-0.6456015927059106,-1.5013999909208098,0.033039126535534785
-0.6528559393014083,-1.5011131642506492,0.025523755077726612
-0.6600844063785555,-1.5008937315469402,0.019067917627729802
-0.6672867099114382,-1.5007301757668785,0.013795111946370762
-0.6744625651223995,-1.5006131866018366,0.009764878611157424
-0.6816116869266531,-1.5005298770941677,0.007054252979859111
-0.6887337925886,-1.500467000803718,0.0057079699865997
-0.6958285993886537,-1.5004109754858346,0.005738114856959246
-0.7028958255829831,-1.5003478830913664,0.00712412310797397
-0.7099351909989587,-1.500264342009736,0.009819283367712713
-0.7169464165208667,-1.5001475561964503,0.013759232011174103
-0.7239292247536527,-1.4999851036745722,0.01885334324625475
-0.730883339563343,-1.4997660254593468,0.024986926184604
-0.737808484817859,-1.499480827301459,0.032021232974526456
-0.7447043870593029,-1.499121479687033,0.039793458800981896
-0.7515707723355525,-1.4986835619596084,0.04812919868470725
-0.7584073645789419,-1.4981626345873122,0.05684810209526652
-0.7652138929733682,-1.4975535125500299,0.06576246013510742
-0.7719900909014948,-1.4968534720479343,0.07468768218249322
-0.7787356917460742,-1.496062250556207,0.08344229610679335
-0.7854504288898223,-1.4951820468250372,0.09184794826848391
-0.7921340357154805,-1.4942175208796236,0.09972940351914664
-0.7987862456057843,-1.493175794020172,0.10691454520147028
-0.8054067919434638,-1.4920664488218975,0.11323437514924911
-0.8119954124629014,-1.4909015291350236,0.11852301368738438
-0.8185518491551441,-1.4896922205502696,0.12268632263807755
-0.8250758400017932,-1.4884476395205608,0.12568505195491678
-0.8315671248973006,-1.4871799856316887,0.12743153484995876
-0.8380254495921946,-1.4859015679665728,0.12787195709274038
-0.8444505598656282,-1.484624786460102,0.12698680029679832
-0.8508422014967654,-1.4833621318991344,0.12479084191966905
-0.8572001202647617,-1.4821261859224963,0.12133315526288857
-0.8635240619487672,-1.4809296210209844,0.11669710947199288
-0.8698137735818567,-1.4797852005373635,0.11100036953651736
-0.8760690087285139,-1.4787045178371128,0.10438489020294282
-0.8822895194379288,-1.47769301998598,0.0969625511798079
-0.888475056521576,-1.4767590858509843,0.08887640902767968
-0.8946253772463053,-1.475909733457067,0.0802832336277448
-0.9007402397791797,-1.4751497542726042,0.07134782698232275
-0.9068194022873122,-1.4744817132094057,0.062243023214866675
-0.9128626229377823,-1.4739059486227162,0.053149688569961814
-0.918869659897692,-1.4734205723112148,0.04425672141332723
-0.9248402735038186,-1.4730214695170152,0.035761052231814125
-0.9307742291316257,-1.4727032905251145,0.027836882633941244
-0.9366712921044351,-1.4724608226677953,0.02060972014716184
-0.9425312281600373,-1.4722866182205945,0.014225088671063844
-0.9483538064557984,-1.472171958684874,0.00880488155465967
-0.9541387962329673,-1.4721068886148572,0.004446153083366881
-0.9598859668287829,-1.4720802156176276,0.0012211184790072646
-0.9655950903174171,-1.4720795765190986,-0.0008229665548579321
-0.9712659403464441,-1.4720933305008774,-0.0016628346655628767
-0.9768982916512237,-1.4721092873771688,-0.0012897891713335278
-0.98249192229376,-1.4721151995550732,0.0002799602775183693
-0.9880466115072595,-1.472099464499082,0.0030023069750291604
-0.9935621385249283,-1.4720511247310772,0.0068052471595830034
-0.9990382833506783,-1.4719598678303316,0.011588880013912346
-1.0044748292077132,-1.471816360376626,0.017231218981911548
-1.0098715604278996,-1.471612916642192,0.02360960251323933
-1.0152282630274456,-1.4713422829019704,0.030580170654860288
-1.0205447262971568,-1.4709989998688335,0.03798951578210093
-1.0258207397780772,-1.4705795199005773,0.04567621394406929
-1.0310560930604673,-1.4700822069999213,0.053470824863654454
-1.0362505794578536,-1.4695073452722454,0.06119625540430595
-1.041403992140083,-1.4688574298539716,0.06869716352245496
-1.0465161236494769,-1.468135255734561,0.07580958283226032
-1.0515867729141148,-1.4673445609059212,0.08236833892408979
-1.0566157420575484,-1.4664906970324731,0.08822809230581002
-1.0616028332033456,-1.4655806294511513,0.09326333840278536
-1.0665478484750635,-1.464622937171404,0.09736840755787901
-1.0714505899962479,-1.4636278128751934,0.10045746503145198
-1.0763108601870852,-1.4626070629169952,0.10246451100136386
-1.0811284682469058,-1.4615738995404908,0.10334455176848117
-1.0859032241615663,-1.4605380760861535,0.103093468995724
-1.0906349358309253,-1.459510558259369,0.10170786555073506
-1.0953234174243154,-1.4585031222981326,0.09919978893941225
-1.0999684857703418,-1.4575267331487742,0.09560824728592891
-1.104569957697582,-1.456591544465959,0.09099920933273431
-1.1091276500346137,-1.4557068986126869,0.08546560444055293
-1.1136413796100142,-1.4548813266602931,0.07912732258838538
-1.1181109660457378,-1.4541225483884475,0.0721312143735075
-1.1225362345641754,-1.453436262658721,0.06462924627424929
-1.1269170082411573,-1.4528258077054435,0.05674692511553343
-1.1312531118227498,-1.4522955119754706,0.04864217395434147
-1.1355443769133555,-1.451847780478389,0.04047246458153256
-1.1397906353516674,-1.4514829877721411,0.03239326611865213
-1.1439917189764226,-1.4511994779630255,0.02455804501793337
-1.1481474596263253,-1.450993564705696,0.017118265062295808
-1.1522576892417646,-1.4508595312031622,0.01022338736534665
-1.1563222449004873,-1.4507896898369292,0.00402002847480604
-1.1603409679504573,-1.4507771923390997,-0.0013856100596147912
-1.164313699241093,-1.4508143905627984,-0.005901864311367855
-1.1682402816032278,-1.4508920420853544,-0.009446763465366898
-1.1721205595825235,-1.4510002534291715,-0.011962495134739678
-1.175954378373012,-1.4511284800617266,-0.013415405360828477
-1.1797415857865312,-1.451265807885364,-0.013795019553136525
-1.1834820316744654,-1.4514016290476421,-0.013107659920267068
-1.1871755682249296,-1.4515251512047294,-0.011379985800476868
-1.1908220500164712,-1.4516262384522896,-0.008661554232288454
-1.194421331839901,-1.4516954643361815,-0.005024795938078698
-1.1979732711928426,-1.4517241427260354,-0.0005647893328734272
-1.2014777261461163,-1.4517051056390522,0.004610555257684413
-1.2049345563483138,-1.451631317458355,0.010380762809927196
-1.208343626842312,-1.4514968587062738,0.016615092286929905
-1.2117048044425816,-1.4512975467158864,0.023175692168585015
-1.215017955963582,-1.4510309356310176,0.029917600451603486
-1.2182829482197621,-1.4506963164062394,0.036688744649513605
-1.221499651173219,-1.4502947168068712,0.04332994179266214
-1.2246679383438819,-1.4498288948524596,0.04969633325235638
-1.2277876812217592,-1.4493022470887633,0.05566058457567494
-1.230858755429609,-1.4487188127058226,0.061078237568998675
-1.2338810432524716,-1.4480839125561056,0.06582383395871083
-1.2368544270647486,-1.44740415451108,0.0697914779711058
-1.2397787892408973,-1.446687433461213,0.07289483633238986
-1.2426540121552754,-1.4459429313159708,0.07506713826868083
-1.2454799781862813,-1.4451811170038191,0.076261175506008
-1.2482565754629693,-1.4444137442411804,0.0764493105218613
-1.2509836962262932,-1.4436504836997432,0.07563210302097503
-1.2536612303450823,-1.4429002421433015,0.0738210499317583
-1.2562890718985864,-1.4421734766390688,0.07103816982569469
-1.2588671199138313,-1.4414797720748453,0.06732798548522062
-1.2613952734177536,-1.4408278411590183,0.06275752390372524
-1.2638734314373012,-1.4402255244205604,0.05741631628555084
-1.266301492999511,-1.4396797902090317,0.051416398045992795
-1.2686793604764879,-1.4391967346945782,0.04489230881129854
-1.2710069416160152,-1.4387807088428242,0.03797847306440757
-1.2732841429882291,-1.438434638953446,0.030792703989542904
-1.2755108737092957,-1.438161455434352,0.023478170444929378
-1.2776870487353764,-1.4379623567493025,0.016175584730567526
-1.2798125831082974,-1.4378367841459583,0.009022686408039583
-1.2818873918699514,-1.4377824216558814,0.0021542423005081537
-1.2839113900622867,-1.437795196094534,-0.004297953507283153
-1.2858844962106653,-1.4378692770612798,-0.010205079669010922
-1.2878066337288163,-1.4379983863682686,-0.015460279810467862
-1.2896777262248804,-1.4381763305427582,-0.019975540230178283
-1.2914976998084193,-1.4383953631265218,-0.02366454720625858
-1.293266484307476,-1.4386471375843766,-0.02646336592248198
-1.2949840095564213,-1.4389227094072554,-0.02833047675655375
-1.29665020548706,-1.4392125361122066,-0.029246775280111065
-1.2982650058643963,-1.4395065172343389,-0.02921549995506884
-1.299828346723142,-1.4397955418613602,-0.028255986315727524
-1.301340165293674,-1.4400703801366779,-0.026399242031426164
-1.3028004033355467,-1.4403220262857146,-0.023694779504963497
-1.3042090044757315,-1.4405423879191557,-0.020210902647302388
-1.3055659123411778,-1.4407242860329514,-0.01603470687757059
-1.3068710713653897,-1.440861455008315,-0.011272079123060455
-1.308124431579194,-1.4409487651206818,-0.006045167876030506
-1.3093259408449187,-1.4409832473758026,-0.0004702237167099003
-1.3104755478901442,-1.4409612024046656,0.005323764963417622
-1.3115732109474476,-1.4408801172037868,0.0112057503254368
-1.3126188899294955,-1.4407391353757644,0.017046623537411806
-1.3136125447488656,-1.44053905712928,0.022719214774384697
-1.3145541353182466,-1.4402823392790973,0.02809829321837647
-1.3154436215503718,-1.4399730952460637,0.03306056705838656
-1.3162809641508288,-1.4396170950571088,0.0374846834903937
-1.3170661328061772,-1.4392215334550005,0.04125605895265121
-1.3177990976208198,-1.4387923324205474,0.04431379362428001
-1.3184798264684106,-1.4383367109919565,0.04658478184966918
-1.3191082948993405,-1.4378627181491617,0.04800607789364833
-1.319684480601102,-1.4373787104011222,0.048537440677930394
-1.3202083612612547,-1.436893351785822,0.048161333781111565
-1.3206799145672798,-1.4364156138702697,0.04688292543867116
-1.3210991184282928,-1.4359547757504998,0.04473008854297174
-1.3214659571622267,-1.4355203295053645,0.04175291864693147
-1.3217804171884007,-1.4351194225510118,0.03800621539876269
-1.3220424840822087,-1.4347595145639145,0.033555011782660786
-1.322252149295533,-1.434447834451405,0.02848043795094206
-1.3224094069151038,-1.4341903185332956,0.022875973777540286
-1.3225142510275179,-1.4339916105418788,0.016847448858005883
-1.3225666757193943,-1.4338550616219259,0.010513042509507284
-1.3225666763638566,-1.4337827303306885,0.004003283770830139
-1.3225142545317592,-1.433775329837048,-0.002546623675507421
-1.322409411827974,-1.433832567517153,-0.009026294012660146
-1.3222521508853946,-1.433953685498955,-0.01530775117723638
-1.3220424809870623,-1.4341366360371597,-0.02126984433611328
-1.3217804121608667,-1.4343780141457934,-0.02680229940822452
-1.3214659544345642,-1.4346730575982043,-0.031805719064561186
-1.3210991178357556,-1.435015646927061,-0.0361915827281704
-1.3206799154698023,-1.435398305424354,-0.03988224657415607
-1.3202083653777175,-1.4358133581480466,-0.04281961490169387
-1.3196844854373335,-1.4362537776102275,-0.04496125446475048
-1.3191082963575962,-1.4367112939859052,-0.04626945787643503
-1.318479823751595,-1.4371776423788993,-0.04672760347621796
-1.3177990932839334,-1.43764457986909,-0.04634032321752189
-1.317066130619171,-1.4381038855124184,-0.0451335026677215
-1.3162809623366467,-1.4385473603408865,-0.04315428100814366
-1.3154436208629994,-1.4389671362674241,-0.04046881448023666
-1.3145541387173942,-1.4393572283238487,-0.037144056920183986
-1.3136125493952377,-1.4397111113900325,-0.03325965096800484
-1.3126188932455873,-1.440023206240546,-0.028906014261975116
-1.311573211654471,-1.4402892128433078,-0.024182677805365187
-1.310475546007872,-1.440506110359584,-0.019198285966441086
-1.309325937691841,-1.4406721571439882,-0.01407059647846371
-1.3081244297086236,-1.4407868907444823,-0.008926480439689286
-1.306871071238147,-1.4408510262932535,-0.0038921050587040424
-1.3055659124938668,-1.4408659565427124,0.0009308440373830221
-1.3042090045987331,-1.4408341166972036,0.0054289992795429586
-1.3028004034533192,-1.4407590414201776,0.00949895254634318
-1.3013401652983703,-1.440645353928087,0.013049258532474146
-1.2998283463752092,-1.4404987659903872,0.016000434748748252
-1.298265005725141,-1.4403260777389861,0.018284962844349276
-1.296650205580674,-1.4401342879618197,0.019851598936160716
-1.294984009457134,-1.4399306264078433,0.020659586719278186
-1.2932664844156783,-1.4397229508163158,0.02068101694004419
-1.2914977001724726,-1.439519071810305,0.019907209518176018
-1.2896777264435944,-1.4393267528966862,0.018348713546765587
-1.2878066335161975,-1.4391537104661438,0.016035307292279637
-1.2858844959600768,-1.4390074472239902,0.013014828096822032
-1.2839113893279963,-1.438894362170743,0.009341811242406621
-1.2818873909552275,-1.438821144472042,0.005083133887022679
-1.2798125835427276,-1.4387935971762131,0.00031701995206240806
-1.277687050646148,-1.4388163840463006,-0.004868067177794613
-1.2755108758210287,-1.438893029560067,-0.010373424654582169
-1.273284143087694,-1.439025918909993,-0.01609011016704604
-1.2710069423171877,-1.4392162321721989,-0.021900908732597264
-1.2686793623399861,-1.439463611470981,-0.027706048649385747
-1.2663014918673499,-1.4397680222054734,-0.03339301563460466
-1.2638734281766872,-1.4401285624122449,-0.03885050560770148
-1.261395270804222,-1.4405430703492768,-0.043976698809243354
-1.2588671192862888,-1.4410081244959636,-0.04867925980091662
-1.2562890731591558,-1.4415190435531133,-0.052875337465527666
-1.2536612319590024,-1.4420698864429466,-0.056491565007001594
-1.2509836963702892,-1.4426534523090981,-0.05946405995038306
-1.2482565754573072,-1.4432617189339014,-0.061742302399092334
-1.2454799778086612,-1.4438889097751288,-0.06330825444061415
-1.2426540105729078,-1.444527866898027,-0.0641371763071971
-1.2397787886262668,-1.4451711644591303,-0.06421793740962232
-1.2368544283050786,-1.4458115852036417,-0.06355819631392749
-1.2338810459456395,-1.4464421204654325,-0.062184400741406784
-1.2308587578842678,-1.447055970167042,-0.06014178756861094
-1.227787680663539,-1.4476465428196785,-0.05749438282734736
-1.2246679375768066,-1.4482075218368065,-0.05432440634083723
-1.221499652749558,-1.4487349400210237,-0.05070826118781678
-1.2182829483685653,-1.4492246508902973,-0.04672764011375528
-1.2150179537607775,-1.4496727534963836,-0.042474628706989107
-1.2117048016200282,-1.4500766050667324,-0.038044644821027304
-1.2083436246401735,-1.4504348210044882,-0.03353643857455088
-1.2049345555151136,-1.4507472748884893,-0.029052092351413195
-1.2014777269387267,-1.4510150984732693,-0.02469702080063916
-1.197973272478925,-1.451240681689055,-0.020579970836426396
-1.1944213330040476,-1.4514275024772048,-0.01680778075693892
-1.190822051032625,-1.4515788367965035,-0.013450869189746365
-1.1871755680253226,-1.4516990477181573,-0.010587274486242852
-1.1834820301578342,-1.4517932757010747,-0.00828606689851498
-1.1797415846030113,-1.4518672673757593,-0.006601438300694514
-1.1759543785336168,-1.4519273755443105,-0.005572702188958122
-1.1721205606236351,-1.4519805591804233,-0.0052242936815278095
-1.1682402832641436,-1.45203389393983,-0.005566028158825128
-1.1643136999344605,-1.4520940232483406,-0.006597765269930735
-1.1603409664393327,-1.4521680865365085,-0.008307702078065693
-1.1563222421395292,-1.4522627604788443,-0.010668840647423756
