u(t),theta,theta_dot
0.040078385574698505,-1.5708103513611613,-0.004193901264377738
0.08011705203264566,-1.5709062651954067,-0.01663895614781299
0.12007624033071176,-1.5711661967833714,-0.03701466759309664
0.15991643937781536,-1.5716702851715296,-0.06486420256045088
0.19959829719081645,-1.5724902381776695,-0.09956559583143647
0.23908246272796885,-1.573689290427564,-0.14033149626614566
0.27832999713136525,-1.575322203354972,-0.18620916680320265
0.31730230125074427,-1.577428455203451,-0.23611896260532664
0.3559594948889957,-1.5800319494918413,-0.28896885272491973
0.3942625707980325,-1.583169702173775,-0.3435799633119835
0.4321747129393087,-1.5868646739171066,-0.3987751748786521
0.46965921496413854,-1.5911241246158094,-0.4533856936758288
0.5066793705238359,-1.5959396133899744,-0.5062510516931861
0.5431984732697136,-1.6012869985858114,-0.5562191066591656
0.5791798168530861,-1.6071264377756478,-0.6021460420409775
0.6145866949252676,-1.6134023877579298,-0.6428963670446023
0.6493836142681338,-1.620043604557221,-0.6773429166147882
0.6835376146206336,-1.6269744207515875,-0.7046284193684675
0.7170138430177657,-1.6341372656899253,-0.7244782363132205
0.7497778105524954,-1.6414538822850773,-0.7362292818925333
0.7817987904207409,-1.648843233290324,-0.7394045721679227
0.8130462413329493,-1.656222868285749,-0.7337496089859709
0.8434896219995741,-1.6635089236782383,-0.7192323799783263
0.8730983911310642,-1.670616122701482,-0.6960433585617036
0.9018420074378697,-1.6774577754159719,-0.6645955039378831
0.9296903875530393,-1.6839457787090033,-0.625524261093711
0.9566175292964704,-1.6899952659278523,-0.5796549928862343
0.9825968498868811,-1.6955607932726775,-0.5276670332483422
1.0076008254101403,-1.700580663564958,-0.470395818373601
1.0316061580992797,-1.7049985243717087,-0.40880000681155126
1.0545905136018856,-1.7087725116433141,-0.3439106527519248
1.0765315575655312,-1.7118752497135286,-0.27683120602464656
1.0974069556378017,-1.7142938512994763,-0.20873751209983366
1.1171943734662835,-1.7160299175016516,-0.14087781208779554
1.1358733146373756,-1.7170995378039187,-0.07457274273903425
1.1534265776742534,-1.7175271719991707,-0.01098141579401423
1.1698367958064448,-1.7173378054657928,0.048994050999229086
1.1850875257438955,-1.7165697927080539,0.10431025480737618
1.199164899598068,-1.715271341811492,0.1540709136778237
1.212055079109922,-1.7135004390359698,0.19753062315995035
1.2237442276816417,-1.7113248488156747,0.23409485630511762
1.23422031922934,-1.7088221041445346,0.2633200001711381
1.243473162916933,-1.7060679201947682,0.28493196022235845
1.2514932209602507,-1.7031367917923876,0.2987509329673906
1.2582731996170298,-1.7001079850811398,0.30473618470116864
1.2638074225301055,-1.6970580218641202,0.30303612977029437
1.268090213342307,-1.6940606796037732,0.29398833057303675
1.2711161474609793,-1.6911869914218916,0.27811949755933213
1.2728825326000086,-1.6885041763784756,0.2561349291459372
1.273387173984769,-1.6860657018510279,0.2287717292025638
1.2726287431577388,-1.683924672017791,0.19686750043483842
1.2706095513134257,-1.6821253036259658,0.16134523698490982
1.2673326999507266,-1.6806997482629316,0.12319100766973015
1.2628012905685297,-1.6796680923562453,0.08345395598105498
1.2570184246657234,-1.6790383571736418,0.04324630008544342
0.7164191877461257,-1.678806498823034,0.0037433328242580943
0.09441603965395506,-1.6780499638031212,0.18781895565782605
0.00490410954359366,-1.6750866785353205,0.40211371275200997
0.0,-1.6700124494422242,0.6090592587678307
0.0,-1.662933943453292,0.8024379962835642
0.0,-1.6540032949782562,0.9781876491752886
0.0,-1.6434089103411886,1.1327585329117174
0.0,-1.631375802541303,1.26313709457053
0.0,-1.6181655912529553,1.3668459128383716
0.0,-1.6040645616089018,1.4420390426532397
0.0,-1.5893578812445888,1.4874202302816166
0.0,-1.5743587970287984,1.5019250681002667
0.0,-1.5593761119888128,1.4852312515981339
0.0,-1.5447120188482313,1.4377843123980154
0.0,-1.53066210002697,1.3607976182565626
0.0,-1.5175153276412616,1.2562523730642787
0.0,-1.5055481313055712,1.126848812816387
0.0,-1.4949688061617088,0.9753023645163788
0.0,-1.4860017562897816,0.8047212830266781
0.0,-1.4788408742883048,0.6185907645207712
0.0,-1.473630631285609,0.42066583011571335
0.0,-1.4704660769398397,0.21497132587213041
0.0,-1.4693928394389577,0.005801922794216763
0.0,-1.470407125500739,-0.20227788317026385
0.0,-1.4734575053470305,-0.40458750234573365
0.0,-1.47847127850771,-0.5975486962301837
0.0,-1.4853478033768197,-0.777155703336838
0.0,-1.493947682116694,-0.9396456654770116
0.0,-1.5040939088914778,-1.0817632816702083
0.0,-1.5155718698671243,-1.2007608081441226
0.0,-1.528129343211397,-1.2943980583346375
0.0,-1.5414765048529422,-1.3609424346266745
0.0,-1.5553359431461165,-1.3993507855514078
0.0,-1.5694352283729365,-1.4089285088044536
0.0,-1.5834758020044417,-1.389388179926546
0.0,-1.5971712112218226,-1.3411432116801105
0.0,-1.6102471089164219,-1.2653078540492606
0.0,-1.6224412536897326,-1.1636971942398016
0.0,-1.6335035098534,-1.0388271566792298
0.0,-1.6432131973365574,-0.893732268600335
0.0,-1.6514065827841182,-0.7312821661187191
0.0,-1.6578990663095823,-0.554844132938093
0.0,-1.662549108828425,-0.36799565197703377
0.0,-1.665263858137975,-0.17448223878278946
0.0,-1.6659991489174144,0.021782558468720348
0.0,-1.6647595027277786,0.21671715897291288
0.0,-1.661598128011956,0.40607194929652146
0.0,-1.6566138049431092,0.5855654296210853
0.0,-1.649911585349097,0.7521163849228497
0.0,-1.641626961253328,0.9022965947725397
0.0,-1.6319293733260796,1.032940025888601
0.0,-1.6210175252261514,1.1414338913265767
0.0,-1.609119383600865,1.2257186504790945
0.0,-1.5964921780860646,1.2842880090758633
0.0,-1.5834224013023626,1.316188919194872
0.0,-1.5701788487987645,1.3210789913901726
0.0,-1.5570206043754964,1.2989284670532115
0.0,-1.544227392459025,1.2501303925811447
0.0,-1.532060173163548,1.1756938024639008
0.0,-1.520761142290994,1.0772437192841895
0.0,-1.510553731331022,0.9570211537174891
0.0,-1.501642607461023,0.8178831045320633
0.0,-1.4942034061662222,0.6631148997577383
0.0,-1.4883618195683856,0.4956913822382125
0.0,-1.4842471691872166,0.31911915907322963
0.0,-1.4819476693280762,0.1370220117802987
0.0,-1.4815055952409555,-0.04692644094152221
0.0,-1.4829172831204747,-0.22900274321165826
0.0,-1.4861331301058833,-0.4054336019679847
0.21637901138066296,-1.4910575942810602,-0.5723958869668606
0.6105780848461667,-1.4979276090377334,-0.8177250436241759
0.7609903712498978,-1.5075402410773109,-1.1186417617466575
0.7322034518442627,-1.5201135506027668,-1.382125699671592
0.8359864426178143,-1.5352191473594547,-1.6153446397516364
1.0093303356171368,-1.5526050641841795,-1.858661275426593
1.262757459837932,-1.5723481228522749,-2.0910441511917477
1.261628966548023,-1.59475005006679,-2.356263512077881
1.023508309458132,-1.6191958088608194,-2.4934269589128415
0.8373895054595903,-1.644633610160451,-2.5565891914068066
0.8469841860842764,-1.670251534588913,-2.5103514074324416
0.9495904632497665,-1.6953214654248794,-2.472210372605294
0.9314976179262358,-1.719560466712111,-2.366124580420994
0.98479668998816,-1.7425733227601896,-2.2215708778516166
0.917234898335606,-1.7641671185374108,-2.044175949258189
0.8672263416508341,-1.7833644824848145,-1.7857269052251512
0.7881474740680405,-1.7999418483286107,-1.5116109830258406
0.725265492255267,-1.8132053561134263,-1.156809971622465
0.9436479545177678,-1.8231416953394497,-0.8064324361774011
1.0379163474154685,-1.8295786521247979,-0.5040092905247378
0.9559095138514828,-1.8329850643792336,-0.16880720882265188
0.9075702841433275,-1.832982424225441,0.17679450496538868
0.8658488015766908,-1.8293929286337272,0.527546838399774
0.9697624002631855,-1.822425267744472,0.8717487829148746
1.0629738995491855,-1.8122463982433763,1.1480419278656047
0.8506443721087054,-1.7994616100953909,1.409755436142324
0.7169089416069141,-1.7838123932130232,1.7170682229483718
0.9473071280075351,-1.765377704009761,1.9661021249638089
1.0644558175384733,-1.7449042272117217,2.1004271388562348
0.8246655010598569,-1.7233058334138749,2.215470668559138
0.9162122335475309,-1.7003315604712999,2.35820320968698
1.1725260034519625,-1.676653053645737,2.3391773857926603
1.0219019984120614,-1.653546273666538,2.2778039144463667
0.9296706484162975,-1.6309454494732687,2.226186409219065
0.9514522606844877,-1.6091945751140164,2.1107824390632577
0.7384333905889662,-1.5887057864500518,1.9615713977008686
0.7981557946703466,-1.5694785737598682,1.8524673680039154
1.0624117572456904,-1.5521577802928601,1.6011770263853062
1.0350717394252973,-1.5374992584925875,1.3127909282949033
0.9967287480972364,-1.525918582989971,1.0163428328575679
0.22871375963742224,-1.5174091517103232,0.6999715272029732
-0.6740286603657442,-1.5107105755931967,0.6928017501762331
-0.8145564077127576,-1.5035232496419113,0.7264626344442825
-0.8127987138758619,-1.4960388144263506,0.7481906137747093
-0.8340411085882182,-1.4885222946462566,0.7501558171124088
-0.8807332339411222,-1.4808834024561532,0.7494754433699008
-0.8661276042732036,-1.473296843889694,0.739488810584708
-0.7526333892235615,-1.4661313484274212,0.7018954371952946
-0.7465981688227596,-1.4595228838079188,0.6154236676120416
-0.8648181500964025,-1.453659544531247,0.5488786173186065
-0.8853467708411444,-1.448510370859306,0.48833474702306695
-0.8854122549917021,-1.4439771351507764,0.4096656944375519
-0.8201762553457337,-1.440295985059469,0.33145811037733175
-0.7426224147953131,-1.4376223221558388,0.2115611468543382
-0.31878908095564484,-1.4360912070599738,0.09130908765713733
1.0410394335268358,-1.436067784216298,-0.2096193502862473
1.9620609393280641,-1.4416120028412358,-0.8887908729760684
1.9995786495830559,-1.453767444615185,-1.5435933658858536
2.044811670380331,-1.4724801442088848,-2.1822614075041438
2.197959449015557,-1.4974060323360956,-2.7736146261100307
2.3452286720436586,-1.5283273694158075,-3.3687834994557813
2.2316901336987103,-1.5647143315252785,-3.8898857580309163
2.027553864898546,-1.605763820761963,-4.282801595703187
2.04236246344891,-1.6500693291885902,-4.544858514747246
2.183128109705684,-1.6967277476703932,-4.75678175118948
1.9282119293865752,-1.7451373863265471,-4.8804708341316445
1.7370273841110229,-1.7937312808697996,-4.784521490606581
1.9500259018544075,-1.8408692157913693,-4.626898248602315
2.2202687829505074,-1.8863166708710761,-4.422397398213104
2.2979331518152124,-1.929413318608751,-4.185939938989951
2.1587461078650505,-1.9695726159452946,-3.8352855493655467
2.1361871129189636,-2.0058979246225426,-3.3822749113608124
2.0795716294621513,-2.0372543291518768,-2.8785362564085557
2.0980315378220316,-2.0632691823727565,-2.281967886938339
2.0248083365806524,-2.0831417954264526,-1.6857371857553924
1.935570123935293,-2.096670953798401,-0.9891441048967483
2.039821479051307,-2.103064794842538,-0.31337707928646363
2.016317915732879,-2.1028989503531457,0.36457494759460485
2.0292914984136545,-2.0958639882246595,1.0411444462314323
1.9488035232123946,-2.082144637715895,1.6794186995823812
1.930824523087915,-2.062051881997532,2.3243015954888566
2.086211271987015,-2.035768105029812,2.8813972537546677
2.442440974265059,-2.0045410725411035,3.3570442786376606
2.4715366386724003,-1.969253851654521,3.64478191575491
2.0919084243584796,-1.9311532009935388,3.9598108584457354
2.0091357107948515,-1.890118322477864,4.232438205615344
2.0810541987080433,-1.8466671462227713,4.404719382716051
2.031223075953381,-1.8020473148776222,4.4640634908767955
1.8731310813661195,-1.7573485206081505,4.469339692105905
1.7933689068754366,-1.7128394336522765,4.405429001416003
1.8003989648985308,-1.6692887449982337,4.257663012628787
1.7203779636224326,-1.6279312715950145,4.0112649591850005
1.691963270447805,-1.5890919535655992,3.7271386300916585
1.908943628081583,-1.5535847699244054,3.3355030865009345
2.082938512837207,-1.5226828558152756,2.8195340593026113
2.0161550964558406,-1.4973120300529479,2.234674598007673
2.0003278506543487,-1.4777475386134982,1.650291836922813
2.103037042600475,-1.4645518539530495,1.0004569230952292
2.122934575611146,-1.4578164503232307,0.3274018770079703
2.0777900185116382,-1.4579831849479896,-0.3495956792971159
1.9748121547242037,-1.464757719612448,-0.9956208612568146
1.9617885411791658,-1.4777246364203411,-1.5953161960114137
1.9060170982641012,-1.496616195891452,-2.176884631640267
1.7974750824109709,-1.5208684489678972,-2.6705863807771943
1.9356941683289164,-1.549934568789043,-3.1023482271348195
2.1703382724344356,-1.5832333399711995,-3.530279912296844
2.155826541549477,-1.620642734839955,-3.9184702326322007
2.0467920581982213,-1.6613599780788628,-4.181465192210072
2.353041098005937,-1.7041683100807674,-4.3518030433192365
2.2981603668692285,-1.7489798245901065,-4.5603499311650015
2.1023982401069174,-1.7944578912108573,-4.519474905540959
2.0476572828532102,-1.8395366102163457,-4.4552662813781785
1.9859150301957063,-1.8830528117778493,-4.206002579148607
2.1108675855295855,-1.9237785603961104,-3.9364967955336465
1.9521950333270532,-1.9615014598752867,-3.5713292107097714
1.854174687495802,-1.994966115988045,-3.0895050128167343
1.7376879232391396,-2.023320633871916,-2.554712184803794
1.830295732778331,-2.0457990361497678,-1.9206277748997052
1.9022986692719845,-2.0621611483050692,-1.3357354645551578
1.9807474591701846,-2.0722296796898374,-0.6700553140730886
2.0978540121848965,-2.0759145450847014,-0.07997257013088654
1.9881194205884523,-2.073578033511651,0.5513290830396742
1.9327274606264933,-2.0649567614565894,1.1659028961845979
2.0067281968568773,-2.0502878404643705,1.7769934123224633
2.0633903476773074,-2.029653439534733,2.297993894059613
2.063647298517357,-2.003992745270243,2.7990549319942484
2.1231473679102386,-1.973885732552716,3.20988093371945
2.056969106815232,-1.9398295402172507,3.559430986736232
2.032199861700046,-1.902506662684617,3.8505371141472877
2.119385544641572,-1.862807918570433,4.051324769565803
2.0548718650953646,-1.8217939647150108,4.139611907524037
2.0793358207771284,-1.779856932752673,4.192506545284244
2.2019481189406775,-1.7381665860908155,4.093509142458209
2.1436985682503185,-1.6979940896643817,3.9220933850306476
1.958017079398422,-1.6599638504758893,3.680415327767713
1.8038071205696227,-1.624215695790099,3.4294415136417116
2.0669886597971088,-1.5914589114499054,3.10659420337958
1.1587848655318922,-1.562812503791056,2.6139874502943337
-0.0035118848648707512,-1.5368708609238062,2.557124714837753
0.0,-1.511749880919332,2.4466694141675056
0.0,-1.4879457910012945,2.2871558188834116
0.0,-1.4659773348984615,2.0818851446774587
0.0,-1.4463077504857402,1.8349518830928933
0.0,-1.4293313704699109,1.5513549420560433
0.0,-1.4153736223896225,1.2369976458762957
0.0,-1.404691028615393,0.8986877352460492
0.0,-1.397471206349612,0.5441373672407979
0.0,-1.3938287531491989,0.18169058838840207
0.0,-1.39378955614285,-0.18231677954894732
0.0,-1.3973611596918654,-0.5405473072290166
0.0,-1.404480860918026,-0.8856017198270736
0.0,-1.4150029315309383,-1.2105799083951563
0.0,-1.4286986178280343,-1.509080929862045
0.0,-1.4452561406945739,-1.7752030070333125
0.0,-1.464280695603641,-2.0035435285912455
0.0,-1.48533203002218,-2.1895768368542106
0.0,-1.5080137779067828,-2.3300750914001664
0.0,-1.53184849711972,-2.4218455372417518
0.0,-1.556346451143758,-2.4629171483170254
0.0,-1.581011426320777,-2.452614300477597
0.0,-1.605340731851775,-2.391556771488624
0.0,-1.6288251997968604,-2.281659741028814
0.0,-1.6509598333716713,-2.12607141705558
0.0,-1.6713442904521667,-1.9282312704663866
0.0,-1.6895517203182862,-1.6922163574472762
0.0,-1.7051985588158522,-1.422862914265683
0.0,-1.7179734832175362,-1.1256630190957142
0.0,-1.7276374122228597,-0.8067645920181004
0.0,-1.7340235059581917,-0.4729713950202803
0.0,-1.7370371659767492,-0.13174303199634263
0.0,-1.7366592566203074,0.20966913153486455
0.0,-1.7329152736653506,0.5450940778421699
0.0,-1.7258711002482143,0.8674179101779657
0.0,-1.7156660545880997,1.1700546667948784
0.0,-1.7025135204583912,1.4469981838981827
0.0,-1.686700947186653,1.6928220956458475
0.0,-1.6685898496546328,1.9026798341484645
0.0,-1.648613205349016,2.072328824715677
0.0,-1.6271717683535254,2.198862122397622
0.0,-1.6046987432117603,2.279676097788327
0.0,-1.5816639947556237,2.3129249105564575
0.0,-1.5585359808021775,2.297975149720041
0.0,-1.5357817521536383,2.235405833646462
0.0,-1.5138669525973838,2.1270084100524693
0.0,-1.4932558189059484,1.97578675600417
0.0,-1.4743585712764053,1.7855115815570586
0.0,-1.457524343843494,1.560008683837729
0.0,-1.4431199824298024,1.3039453671012464
0.0,-1.4314419366544777,1.022521057506438
0.0,-1.4227150004506062,0.7214599222081266
0.0,-1.4170923120652172,0.407010869357209
0.0,-1.4146553540592808,0.08594754810060379
0.0,-1.4154139313407086,-0.23447165470974152
0.0,-1.4193191718614597,-0.5482310385587597
0.0,-1.426292577126037,-0.8491252695713367
0.0,-1.4361973137796298,-1.1308181604418228
0.0,-1.4488314852497164,-1.3876181507654308
0.0,-1.463928131746063,-1.6144783070381599
0.0,-1.4811552302607238,-1.8069963226568488
0.0,-1.5001156945680405,-1.9614145179191569
0.0,-1.5203806494157355,-2.0748377274448773
0.0,-1.541566506556478,-2.1453619281879828
0.0,-1.5632247298397277,-2.1713297519726344
0.0,-1.584909561757693,-2.152159573585691
0.0,-1.6061836089744745,-2.0883943783181405
0.0,-1.62661784232606,-1.9817017619650985
0.0,-1.645791596820325,-1.8348739308258215
0.0,-1.6633003971496731,-1.651763900326312
0.0,-1.678838490764321,-1.4362540448220114
0.0,-1.6920792070199293,-1.1927500574605294
0.0,-1.702737775324593,-0.926218431169834
0.0,-1.7106000619326154,-0.6420285219880322
0.0,-1.7155225699445056,-0.3459525490634392
0.0,-1.7174324393069802,-0.044165594654533624
0.0,-1.7163274468129635,0.2567543958700187
0.0,-1.7122733434366544,0.5500910782686551
0.0,-1.7053676657078964,0.8307047977671234
0.0,-1.6957479377138713,1.0927516703343043
0.0,-1.6836080901800452,1.3307589350104916
0.0,-1.6691975533876304,1.5399612243175687
0.0,-1.6528212571735854,1.7163005642590574
0.0,-1.6348396309306157,1.8564263743200984
0.0,-1.6156685360220349,1.957695871982909
0.0,-1.5957043262982116,2.018482655753449
0.0,-1.5753412348409015,2.037651641534404
0.0,-1.555009775403262,2.0146683962770475
0.0,-1.5351244221199212,1.9500262986113475
0.0,-1.5160836095069845,1.8452465388459727
0.0,-1.4982697324620307,1.7028781189682989
0.0,-1.4820491462641106,1.526497852644381
0.0,-1.4677456733859822,1.3204317210823637
0.0,-1.4556021937145764,1.088754560196605
0.0,-1.4458903667739171,0.8362479789890753
0.0,-1.4388195807439172,0.5680131312215354
0.0,-1.434529669644846,0.289416945343679
0.0,-1.4330909133373266,0.006092124493089601
0.0,-1.4345040375223372,-0.2760628535047387
0.0,-1.438700213741211,-0.5508837361364474
0.0,-1.445547431180572,-0.8122457070555927
0.0,-1.4549034421124418,-1.0557149648619206
0.0,-1.4665789277992998,-1.2761879598596892
0.0,-1.4803362032728995,-1.4690391218611256
0.0,-1.4958933838325565,-1.630418043741923
0.0,-1.5129243850451461,-1.7572494814412236
0.0,-1.531058922745107,-1.8472333539616415
0.0,-1.549883002357042,-1.8988464316993254
0.0,-1.5690179901005972,-1.9114757168466898
0.0,-1.5880821152101128,-1.884919893543015
0.0,-1.6066722124908726,-1.8196368934109866
0.0,-1.6244102471259263,-1.7169941179445642
0.0,-1.640943314676093,-1.5792684385089857
0.0,-1.655943641079963,-1.4096461963407396
0.0,-1.6691085826538936,-1.2122232025476045
0.0,-1.6801815192100003,-0.9916488549823198
0.0,-1.6889742229337739,-0.7521497151697611
0.0,-1.6952902981390123,-0.4987257028687352
0.0,-1.698994942849469,-0.2365390738210028
0.0,-1.700019588690257,0.029144996734450812
0.0,-1.6983619008878474,0.29295841406139456
0.0,-1.6940857782700707,0.5494301639264003
0.0,-1.6873213532661158,0.79298631259877
0.0,-1.6782363538321357,1.0188512322808754
0.0,-1.6670100116786664,1.222820742169286
0.0,-1.6538724285881716,1.4004372413735489
0.0,-1.6390901330613425,1.5480324297478318
0.0,-1.6229660319103778,1.6627294494155378
0.0,-1.60583941025898,1.742442884769321
0.0,-1.5880859315423592,1.7858787624710586
0.0,-1.5701107537390597,1.7925420916450827
0.0,-1.5522518808461367,1.7626564657775168
