u(t),theta,theta_dot
-0.01050258060983129,-1.570782074463004,0.0021786227766181993
-0.021000959518456618,-1.5706826740268633,0.008497257984079987
-0.031490937440950564,-1.570418212385539,0.018428070099427058
-0.041968318701297525,-1.5699259942795192,0.031116551085758348
-0.05242890996443811,-1.5691659489649459,0.045448942331290064
-0.06286852521076106,-1.5681151951500627,0.06025128656362388
-0.07328299227311351,-1.5667674693520817,0.07432816843314341
-0.08366814616240881,-1.5651474702845685,0.08655910903634408
-0.09401982892202458,-1.5633110416318767,0.09590023876123396
-0.10433389669039488,-1.56132999991941,0.10161112843113719
-0.11460622492906916,-1.5592762018126325,0.10327204325995328
-0.12483271022246363,-1.5572297635759147,0.10069688752186269
-0.1350092596710735,-1.55527148232407,0.09413424850321009
-0.14513179765540404,-1.5534803834978137,0.08424710243880355
-0.15519627313681342,-1.5519122906609149,0.07184794039258213
-0.1651986649887604,-1.550612516443191,0.05789538245991381
-0.17513497617654833,-1.5496020788407088,0.04347993216873351
-0.18500122470261113,-1.5488738511619111,0.029802964926484606
-0.19479346157925265,-1.548399318046478,0.017970848795692208
-0.20450777492169325,-1.548135719299312,0.008869702161356394
-0.21414027908780303,-1.548022456937315,0.0031758282378880585
-0.22368711646890693,-1.5479851280771952,0.0012515345206341383
-0.2331444691460115,-1.5479471292600822,0.003182833929363611
-0.24250855725737908,-1.5478331586663596,0.008758988459600265
-0.2517756323137804,-1.5475761623340258,0.017419876531498225
-0.2609419837644896,-1.547122435927854,0.02837272627706386
-0.2700039499882307,-1.546433025648071,0.040674674724491364
-0.27895790832306555,-1.5454918934668487,0.05327435955253156
-0.28780026743403414,-1.544307797726234,0.06509570459039248
-0.29652748745001256,-1.5429054604344257,0.07514069469457842
-0.30513609225595456,-1.5413238786829437,0.0825259885684742
-0.3136226383315174,-1.539621204694992,0.08664099974973129
-0.3219837182932419,-1.537873954393663,0.0871542641238193
-0.33021598282278014,-1.5361547032472702,0.0840469684935103
-0.3383161484499242,-1.5345340699160506,0.0775045457431806
-0.3462809850440854,-1.533075249074955,0.06800268763825984
-0.3541072953628786,-1.5318286283710218,0.05634101225985878
-0.36179193859979736,-1.530826645047799,0.043485627411163394
-0.3693318480187356,-1.530085963220964,0.030398482771258034
-0.37672402085975193,-1.529605049621979,0.018074143024706738
-0.38396548941219966,-1.529357036218233,0.007442316120021303
-0.3910533493674054,-1.5292943620252721,-0.0006800018915329234
-0.3979847745838753,-1.529363971283947,-0.005743086791289544
-0.40475699092038936,-1.5295016484814552,-0.007438811381344028
-0.4113672871471963,-1.5296391325984986,-0.005741940823204983
-0.4178130219011103,-1.5297102156246463,-0.0008866773598860478
-0.4240916131745646,-1.5296572995352453,0.006618616364831795
-0.43020054765754573,-1.5294338610935694,0.016060873248543994
-0.4361373899384797,-1.529007613750433,0.02659440467768063
-0.4418997653588878,-1.5283675410661015,0.03727263648675234
-0.44748535155664654,-1.5275234797502955,0.04716008896294541
-0.4528919181820898,-1.5264974244890817,0.05536878355841554
-0.4581173270585548,-1.5253263523711627,0.0611591752810722
-0.46315947552185155,-1.5240646216672897,0.06402499094986511
-0.46801633028281664,-1.5227804299046064,0.06370536363191462
-0.47268595201933883,-1.5215354891574886,0.0601981380683638
-0.4771664882504467,-1.520392453746368,0.05369485847854095
-0.48145614842339257,-1.5194052655350936,0.04467035845971775
-0.48555320057113577,-1.5186168454930318,0.03387460493890678
-0.4894560020038019,-1.5180536687292063,0.022117055321542477
-0.4931630065780304,-1.5177301511867336,0.010270559763791615
-0.49667273622938796,-1.5176399490770651,-0.0007951361944449967
-0.4999837708836885,-1.5177547897533565,-0.01024835130799164
-0.5030947860826085,-1.518035403809301,-0.017428238871800894
-0.5060045485225761,-1.518433023387253,-0.02184422279082645
-0.5087118921387052,-1.5188899138254026,-0.023261151960821392
-0.5112157237653805,-1.5193448822253552,-0.021705424354892873
-0.5135150500883325,-1.5197401445048955,-0.017401665036728776
-0.515608957402068,-1.5200252752852608,-0.010803671215739278
-0.5174965970517448,-1.520162250208669,-0.0025868529352261497
-0.5191772036921061,-1.5201268836316493,0.006477596585174697
-0.5206501254335985,-1.5199060250069285,0.015570059175479866
-0.5219147824118503,-1.5195066097780718,0.023882883019393848
-0.5229706469810996,-1.518956268961407,0.030628650049461456
-0.523817288245193,-1.518294418509693,0.035196745971421056
-0.5244543828926209,-1.5175672072291118,0.03714212839278487
-0.5248816885320223,-1.5168279175027173,0.036231068294787866
-0.5250990196055322,-1.5161345789350948,0.032512472693917126
-0.5251062780608551,-1.5155417314570636,0.026261075358813696
-0.5249034743824571,-1.5150968236584164,0.017899304558608088
-0.5244906985711506,-1.5148366333097112,0.008025266648823907
-0.5238681046692617,-1.5147821096594885,-0.002599540763754952
-0.5230359311089505,-1.5149389309421415,-0.013188501780687789
-0.5219945244122698,-1.5153017499831882,-0.02296244666494819
-0.5207443105457926,-1.515848699483876,-0.031227056762215627
-0.519285774877451,-1.5165403337241885,-0.037415077452680724
-0.517619493930252,-1.5173301047445744,-0.041147030828416954
-0.5157461484600362,-1.518167754563075,-0.04220360608445149
-0.5136664929225543,-1.5190008685576435,-0.04060655132758804
-0.5113813456198518,-1.5197777385685536,-0.03663962030401063
-0.5088916158701107,-1.5204555535211126,-0.0307409874420248
-0.5061983151145116,-1.5209992013588218,-0.023469211803717964
-0.5033025232052235,-1.5213883856304011,-0.015503673684258718
-0.5002053830237108,-1.5216187237937242,-0.007623686983615554
-0.4969081375497203,-1.521698881386623,-0.0005457879792257671
-0.49341211360638126,-1.5216503678141327,0.005081467587337071
-0.4897187053842317,-1.5215081193532662,0.00874311690481179
-0.4858293859153512,-1.52131570232491,0.010086328003235105
-0.4817457183364737,-1.5211214382216955,0.008931584622576637
-0.47746933509353606,-1.5209747345905198,0.005329037210890287
-0.4730019400569718,-1.5209222537989893,-0.00046846343253755494
-0.4683453276923627,-1.5210051112761376,-0.008054758426406254
-0.46350136587536006,-1.52125326950259,-0.01687254648805252
-0.4584719758575023,-1.5216819717936219,-0.026261667851748858
-0.4532591674020259,-1.5222976669025843,-0.035527436741463796
-0.44786505190360926,-1.5230954789990918,-0.04399573971411685
-0.4422917827227285,-1.5240531169032716,-0.05106962460940003
-0.4365415705667508,-1.525131560588248,-0.05623851665749911
-0.4306167124580068,-1.5262893789381637,-0.05920656263698228
-0.42451959230780933,-1.527482616530858,-0.05979668015292858
-0.4182526618906002,-1.5286655350286016,-0.05803685042835768
-0.41181841304726574,-1.5297926729729157,-0.054199288599981785
-0.40521940806743095,-1.5308257845746363,-0.04872958898418756
-0.3984582953925647,-1.531736999212963,-0.04212971005540991
-0.39153779616817874,-1.5325077160826936,-0.034990582511819954
-0.38446066946803137,-1.533134870624557,-0.02796592580541545
-0.3772297338037439,-1.5336300727279624,-0.021735812731377452
-0.3698478887838752,-1.5340138519432844,-0.016839206118533977
-0.3623180958279376,-1.534316152746805,-0.013732520423164118
-0.35464336363297544,-1.5345759002050863,-0.012699419063051222
-0.3468267533249664,-1.5348372662519278,-0.013842047707259329
-0.33887139803214505,-1.535143434391759,-0.017115150632509735
-0.33078048652595005,-1.5355350618721544,-0.022303300300277704
-0.3225572526419168,-1.5360458801246575,-0.02899834574972638
-0.3142049728606017,-1.5366986003508953,-0.036678508944305896
-0.30572699272990167,-1.5375108755040552,-0.04477542065102583
-0.29712672363849946,-1.538487955173271,-0.052699322036487556
-0.2884075966090027,-1.5396189772100763,-0.05985794670305569
-0.2795730885831821,-1.5408777500089847,-0.06568142559350562
-0.27062673042786145,-1.5422336083872064,-0.06980878641315254
-0.26157210950710774,-1.5436524813739971,-0.0719263629424883
-0.25241286419727393,-1.5450956963725386,-0.07190183039698254
-0.24315264485606225,-1.5465205117634506,-0.06982010379063812
-0.23379514652026867,-1.54788275408397,-0.06597075376286114
-0.22434411581803426,-1.549153439149843,-0.06072131006622772
-0.21480334112908006,-1.5503071988869073,-0.054519603163013824
-0.20517664451796813,-1.5513301931771257,-0.04789733291968019
-0.19546786708635744,-1.5522219812469475,-0.041464803443079935
-0.18568088879004074,-1.552993774979839,-0.03579456619015418
-0.17581963053746597,-1.5536639460352262,-0.031356103087992526
-0.1658880424415421,-1.5542593352157368,-0.02853782644221247
-0.1558900931659446,-1.5548154929760651,-0.027568419406091574
-0.1458297776203321,-1.5553726252605726,-0.028512462117215615
-0.13571112319523682,-1.555967712699528,-0.03130640902048502
-0.12553818223262625,-1.5566363134717698,-0.035754945330758015
-0.11531502290289541,-1.5574071193453956,-0.0414940676186268
-0.1050457307636532,-1.5582998106590975,-0.048020428918212905
-0.09473441222155321,-1.5593239545254065,-0.05482971089003917
-0.0843851964353104,-1.5604853237345175,-0.06139565482711995
-0.07400222898196196,-1.5617761307598066,-0.06722118598425902
-0.06358965761119051,-1.5631744296522139,-0.07184334989314865
-0.05315164480855783,-1.5646456542691913,-0.07486196830864586
-0.042692368123908864,-1.5661575555415623,-0.07612214040921725
-0.032216012905383895,-1.5676754715776806,-0.0755037402262659
-0.021726771968094694,-1.56916438039531,-0.07304893012380394
-0.011228839595650575,-1.5705902120209634,-0.0689962245410222
-0.0007264139766816058,-1.5719211286800365,-0.06376832291664798
0.009776301681357902,-1.5731405166632875,-0.05779665650319578
0.02027510593102244,-1.5742355301777848,-0.05154650617824012
0.030765800462129178,-1.575203695667411,-0.04550548677779298
0.04124418774570926,-1.5760557489418818,-0.04016412839017441
0.05170607494622281,-1.5768145110120568,-0.03599062623633037
0.06214727641563056,-1.5775052011802002,-0.03327048250407216
0.07256361730228478,-1.5781576652837794,-0.03221822517352032
0.0829509315539434,-1.578804979523459,-0.03289275397443683
0.09330506167124497,-1.5794823933182747,-0.035179725603642305
0.10362186347980806,-1.5802196693440775,-0.03884970114360542
0.11389721265064878,-1.5810426033949878,-0.043595228100938896
0.12412700165548296,-1.5819688333763064,-0.04901570061138269
0.13430713614285272,-1.5830058299192478,-0.05462079863453863
0.14443353755295707,-1.5841504130890987,-0.05992989321861452
0.15450215574741022,-1.585394102695474,-0.06449257005241528
0.16450897373023188,-1.586720837155079,-0.0679133976301027
0.17444998565995795,-1.5881049388296038,-0.06990598755589889
0.184321208435817,-1.5895115644123385,-0.07029610445505913
0.19411868819961264,-1.5909086157130554,-0.06906954212099518
0.20383850978152318,-1.5922644400774921,-0.06628090824846049
0.21347679820575838,-1.5935499757330167,-0.06210721899582985
0.2230296906280349,-1.5947417055577828,-0.056877203099119
0.2324933577081495,-1.5958224451880372,-0.05105497788844168
0.24186400979168965,-1.5967862720642232,-0.045062964899849435
0.2511379057175106,-1.5976309753423268,-0.03934069358961374
0.2603113496952192,-1.5983642036511663,-0.034300183773914916
0.26938066004667527,-1.5990049859131488,-0.030304198434058554
0.27834219978910557,-1.5995816871724495,-0.027638522240158562
0.2871923832321238,-1.600120696150618,-0.026429096756918055
0.2959276813617018,-1.6006507716625538,-0.026749201647545212
0.30454461051510895,-1.6012004053184008,-0.028522653968469116
0.3130397070848112,-1.6017972903841995,-0.031513260432360524
0.3214095649547999,-1.6024642271741532,-0.03537348866151426
0.32965084345667195,-1.6032140887930957,-0.03975155012198829
0.33776025732853987,-1.6040546830917446,-0.04424325591248119
0.3457345591728611,-1.6049835599961413,-0.04842969163155624
0.35357054737270854,-1.6059883997649422,-0.051898530451606445
0.3612650823221403,-1.6070516295465342,-0.05433616486399567
0.3688151000140416,-1.6081513444904354,-0.055470625773772625
0.37621759283045786,-1.6092613111460101,-0.05515822778155512
0.3834695821244266,-1.6103510841382893,-0.053394638781729356
0.39056815524044775,-1.6113912286970302,-0.050302642168150176
0.3975104779929184,-1.6123576643165063,-0.04606875325507672
0.4042937931727164,-1.613228648099123,-0.040956336035191394
0.41091538532084804,-1.6139908854607272,-0.035319672329627336
0.41737258806521793,-1.614639612182767,-0.029599044893112977
0.42366281274272277,-1.615178017054132,-0.02418454541893301
0.4297835556168944,-1.6156137661312366,-0.019440065249732616
0.43573238320937235,-1.6159619418126472,-0.01567485447696929
0.4415069002442401,-1.6162458703799847,-0.013108004692966978
0.44710478451489566,-1.61649315916286,-0.011852458598508087
0.4525238060516773,-1.616729006143473,-0.011926526681689014
0.45776181182753395,-1.6169789818061024,-0.01325533016991187
0.46281669827845373,-1.617265898827464,-0.015634427650627482
0.4676864289817978,-1.617608375647872,-0.018754032833558015
0.47236906171018445,-1.6180178154619058,-0.022286701902465077
0.4768627379736462,-1.618499933790087,-0.025870072864803327
0.481165656285093,-1.6190516495397058,-0.029135707074650095
0.48527607932742356,-1.6196616376453086,-0.03173305843545867
0.4891923625529315,-1.6203139640186066,-0.03338565214396947
0.4929129593195525,-1.6209884033908486,-0.03387031186637614
0.4964363830412821,-1.6216611011145812,-0.03308105989313929
0.4997612063144974,-1.6223050364162188,-0.031032085881954722
0.5028860908056737,-1.6228964675110398,-0.02783053743648952
0.5058098014813689,-1.6234128249564548,-0.023646216200486077
0.5085311863610609,-1.623836863447387,-0.018733275464051204
0.5110491358469138,-1.624158377639225,-0.013432574423038756
0.5133626318546719,-1.6243741453538871,-0.008115926964014478
0.5154707635473404,-1.6244861409963998,-0.0031167496227923596
0.5173726958102087,-1.624502967986648,0.00124507239849515
0.519067658238434,-1.6244410891284284,0.004710523395987127
0.5205549634931195,-1.624321164127833,0.007099383412929778
0.5218340288725809,-1.6241652603872947,0.008304899463102606
0.5229043466751654,-1.6239967543472018,0.008324905693772264
0.5237654767930894,-1.6238388978941989,0.007272360641938203
0.524417075942149,-1.6237113991393262,0.005330457923098315
0.5248588928823045,-1.6236299597719608,0.002745761915328631
0.5250907459258047,-1.6236040772244378,-0.00017412023022290085
0.5251125376763782,-1.623636983858138,-0.0030949198474043366
0.5249242655719785,-1.6237257217506138,-0.005694611740481876
0.524526002295926,-1.623860757508953,-0.007680081751395621
0.5239179072515767,-1.6240272278208703,-0.00880860446601728
0.5231002277878927,-1.6242062649522242,-0.00891045299402326
0.5220732813308301,-1.6243766039761203,-0.00790943388638953
0.5208374825480699,-1.6245155419698427,-0.005805673453925152
0.5193933378017281,-1.6246018461462886,-0.0026881122548409134
0.5177414181378223,-1.6246174371734177,0.001252745707914422
0.5158823658858253,-1.6245493742095716,0.005766350469634379
0.5138169342082721,-1.6243870585896871,0.010572163994231252
0.5115459764085062,-1.6241264167649998,0.015370608920528042
0.509070383104436,-1.6237717643953935,0.019852804593208945
0.506391127445642,-1.6233348800650134,0.02372463586361717
0.5035092853076142,-1.6228292799693536,0.026779168467562245
0.5004260286820966,-1.6222715270574575,0.02884258274500652
0.497142595481527,-1.6216815949598897,0.029839894107475916
0.4936602795244549,-1.6210825870768077,0.02980005250904835
0.4899804658553511,-1.6204944110265402,0.0288314930884756
0.48610464091201483,-1.6199340441594217,0.02708914592774473
0.4820343704870736,-1.619414747261602,0.02479206106126249
0.4777712683031621,-1.6189444224977072,0.022225408169876264
0.473317024142908,-1.6185249141447648,0.019693828768206613
0.46867342685035507,-1.6181531422584803,0.017473735869361975
0.4638423570743039,-1.6178214535164672,0.015822780898132868
0.45882574022221845,-1.617516411513702,0.014942187543133957
0.4536255657202892,-1.6172193562815111,0.014972233447496515
0.44824391034633815,-1.6169118630372095,0.015965674290310608
0.4426829419682719,-1.616574268373301,0.017924542746998128
0.4369449000885983,-1.6161885559191236,0.02076200457804788
0.431032064472045,-1.615739150228987,0.024294097379727035
0.42494678398058494,-1.6152154928223523,0.02827704637073825
0.41869149270421857,-1.614610296724919,0.03246879080201841
0.4122687208239557,-1.6139192881022746,0.036607202040294405
0.40568104786444653,-1.6131458788387256,0.04043240482642612
0.39893108067765165,-1.6123011800955307,0.04368688770597141
0.3920215094561939,-1.6114017146771555,0.04616754735173776
0.38495510142704664,-1.6104622794943855,0.047774890697427685
0.37773470302574286,-1.6094994778498493,0.04842164982622013
0.370363220179383,-1.6085311462241159,0.04811834646462144
0.36284357350222785,-1.6075762985704445,0.04697552107097673
0.35517876066140514,-1.6066529187414391,0.04518999222979779
0.347371853833818,-1.6057697814151208,0.042964384242426525
0.3394259884918885,-1.6049344597509234,0.040528347834002346
0.33134435650597827,-1.6041489128662207,0.03812887424445178
0.32313017177202535,-1.6034088909950217,0.03602764243713982
0.3147867106632632,-1.602704747886612,0.034462464119050816
0.30631731399016726,-1.6020246043826303,0.033589562788899005
0.2977253845721898,-1.601354183584795,0.03354337213644753
0.2890143683418802,-1.60067729985085,0.034371854014903565
0.28018773134428737,-1.5999758858784614,0.03603440561458563
0.2712489973828735,-1.5992332762992911,0.03841360569711014
0.2622017467793791,-1.5984373477370344,0.04136411905844131
0.2530496117061673,-1.5975769518601473,0.04470281417583571
0.2437962587868138,-1.5966467735934402,0.04820471887612655
0.23444537465374185,-1.5956474117636814,0.051603116695384865
0.22500069381967328,-1.5945850828450296,0.054650321133898803
0.21546599731856428,-1.593467704442926,0.05716029336857184
0.20584511194432306,-1.5923056505288564,0.0589563356214929
0.19614189218108943,-1.591113388071151,0.0599339966900357
0.186360204572472,-1.5899094808201553,0.06006143543501716
0.17650395786631298,-1.5887131731669886,0.059385530296
0.1665770979844893,-1.5875376827177339,0.05800303875829034
0.156583603413176,-1.586396563851404,0.05603629233685839
0.1465274790098562,-1.5852993280121916,0.05366540571711154
0.13641273640712842,-1.584251260929933,0.05112905334227372
0.12624341801003663,-1.5832527256064046,0.048694329810111674
0.11602359322001117,-1.5822990426852643,0.046551929781208756
0.10575735444217065,-1.5813842919660785,0.044900789263391146
0.09544881622555963,-1.5804984699105726,0.04388882379536953
0.0851020955111935,-1.5796272724764948,0.04360660906763673
0.07472132681460536,-1.5787526314665619,0.04408429984191403
0.06431066415095253,-1.5778608575209407,0.045267006739533495
0.0538742738804052,-1.5769383704704358,0.04708207450439787
0.043416335002687434,-1.575973692501661,0.049407267491617
0.03294102970771431,-1.5749591000113041,0.05205742829412887
0.0224525445058542,-1.573890627418883,0.054784575702432906
0.011955076486331656,-1.5727702248345456,0.05736350671317887
0.0014528269725197966,-1.571602028175321,0.05960860270568519
-0.009050003838379362,-1.5703921889995414,0.06133574569196295
-0.019549214847725285,-1.5691514897145442,0.06241073884921741
-0.030040605850470838,-1.567895343576671,0.06274930651984804
-0.04051997974546084,-1.5666423913890202,0.06232663218840053
-0.05098314088422206,-1.565405313635279,0.06120551145697653
-0.06142590495602465,-1.5641978074114398,0.059449435789599436
-0.07184410096344906,-1.5630311794389506,0.05717533883615179
-0.08223355912712399,-1.5619133487268824,0.05456309267739813
-0.09259011973234256,-1.5608488465475845,0.051855507192538855
-0.1029096364741305,-1.5598365511403807,0.04927305801827944
-0.11318798000634604,-1.5588725951333777,0.04698170946465371
-0.12342104783461104,-1.557951573857233,0.045152490965998014
-0.1336047507026424,-1.5570637756370345,0.043908420101906175
-0.14373500539015235,-1.5561951817923005,0.043324502597229544
-0.15380775588784615,-1.555329319505558,0.04341630119586723
